VAMAS Surface Chemical Analysis Standard Data Transfer Format 1988 May 4
Not specified
MI-600-BE9240AA
DESKTOP-MI6NA2R\kratos
20200210_TaO2_AC_test.experiment
0
NORM
REGULAR
1
4
Index
d
PositionX [mm]
n
PositionY [mm]
n
PositionZ [mm]
n
0
0
0
0
3
wide
Ta
2020
2
10
10
22
38
1
36
Creation
Created by : DESKTOP-MI6NA2R\kratos
Date created : 10/02/2020 10:22
Computer : DESKTOP-MI6NA2R
Location
Location ID : Ta
Sample : Ta
Description : (55.796,2.896,-0.800)mm
Tilt : 0.00
Charge Neutraliser : Off
Settings
Excitation
Mode : XPS - monochromatic
Tuning : Spectroscopy
Emission current : 15.00mA
Anode library : Al
ESCA modes
Collimation : Slot
Lens : Hybrid
Resolution : 160.00
Scan
Deflection : (0.000, 0.000)mm
wide : 286.690-1491.690eV, Sweeps 2
Start : 286.690eV
End : 1491.690eV
Centre : 889.190eV
Width : 1205.000eV
Step size : 1.000eV
Number Steps : 1205
Dwell time : 100ms
Sweep time : 120s
Sweeps : 2
Instrument Conditions
Work function : -4.50
Acquisition Conditions
X-ray Power : 225.00W
XPS
1
55.7963036326509
2.89567917788632
-0.8
Al (mono)
1486.69
225
1E+37
1E+37
1E+37
1E+37
FAT
160
1E+37
-4.5
1E+37
1E+37
1E+37
1E+37
1E+37
wide

-1
Kinetic energy
eV
286.69
1
2
Intensity
d
Transmission
d
pulse counting
0.099502
2
0
1E+37
1E+37
1E+37
0
2412
15
119093
12.1974630554708
15.5208295946116
65292
12.1974630554708
65707
12.2024375034573
65935
12.2074119514438
65710
12.2123863994304
65610
12.2173608474169
65678
12.2223352954034
65462
12.22730974339
65773
12.2322841913765
65301
12.237258639363
65953
12.2422330873496
65365
12.2472075353361
64889
12.2521819833226
65346
12.2571564313091
65215
12.2621308792957
64825
12.2671053272822
64983
12.2720797752687
65253
12.2770542232553
64890
12.2820286712418
65713
12.2870031192283
64907
12.2919775672149
64878
12.2969520152014
64815
12.3019264631879
64773
12.3069009111744
64449
12.311875359161
63690
12.3141080878022
64080
12.3151090294912
64299
12.3161099711802
64351
12.3171109128691
64192
12.3181118545581
64335
12.3191127962471
64071
12.3201137379361
63870
12.3211146796251
64357
12.3221156213141
64537
12.323116563003
64768
12.324117504692
64980
12.325118446381
64642
12.32611938807
64477
12.327120329759
64532
12.328121271448
64638
12.3291222131369
64840
12.3301231548259
64708
12.3311240965149
65055
12.3321250382039
65206
12.3331259798929
65132
12.3341269215819
65112
12.3351278632708
65258
12.3361288049598
65310
12.3371297466488
65564
12.3381306883378
65920
12.3391316300268
65767
12.3401325717158
65505
12.3411335134047
65303
12.3421344550937
65250
12.3431353967827
64895
12.3441363384717
64433
12.3451372801607
63816
12.3461382218497
63025
12.3471391635386
62451
12.3481401052276
61964
12.3491410469166
61677
12.3501419886056
61850
12.3511429302946
61174
12.3521438719836
61024
12.3531448136725
60666
12.3541457553615
60696
12.3551466970505
60467
12.3561476387395
60506
12.3571485804285
60575
12.3581495221175
60165
12.3591504638064
60315
12.3601514054954
60151
12.3611523471844
60125
12.3621532888734
60385
12.3631542305624
59983
12.3649250943483
59947
12.3670418651634
60036
12.3691586359784
59765
12.3712754067935
59740
12.3733921776085
60142
12.3755089484236
59891
12.3776257192386
59748
12.3797424900537
59864
12.3818592608687
59746
12.3839760316838
59813
12.3860928024988
60156
12.3882095733139
60100
12.3903263441289
59848
12.392443114944
59758
12.394559885759
59792
12.3966766565741
59875
12.3987934273891
59329
12.4009101982042
59123
12.4030269690192
59571
12.4051437398343
59638
12.4072605106493
59527
12.4093772814644
59376
12.4114940522794
59562
12.4136108230945
59827
12.4157275939095
59738
12.4178443647246
59690
12.4199611355396
59618
12.4220779063546
59628
12.4241946771697
59384
12.4263114479847
59449
12.4284282187998
59863
12.4305449896148
59487
12.4326617604299
59107
12.4347785312449
59126
12.43689530206
59473
12.439012072875
59111
12.4411288436901
59276
12.4432456145051
59559
12.4453623853202
59033
12.4474791561352
58986
12.4495959269503
58693
12.4517126977653
59132
12.4538294685804
59233
12.4559462393954
58753
12.4580630102105
58560
12.4601797810255
58411
12.4622965518406
58482
12.4644133226556
58240
12.4665300934707
58256
12.4686468642857
57942
12.470804116576
57966
12.4729795561958
57792
12.4751549958156
58159
12.4773304354353
58060
12.4795058750551
57725
12.4816813146749
58015
12.4838567542947
57966
12.4860321939144
57894
12.4882076335342
57572
12.490383073154
57687
12.4925585127738
57759
12.4947339523935
57950
12.4969093920133
57858
12.4990848316331
57749
12.5012602712529
57705
12.5034357108726
57613
12.5056111504924
57941
12.5077865901122
57894
12.509962029732
57534
12.5121374693517
58093
12.5143129089715
57826
12.5164883485913
58154
12.5186637882111
58045
12.5208392278308
58044
12.5230146674506
58136
12.5251901070704
58433
12.5273655466902
57989
12.5295409863099
57661
12.5317164259297
57908
12.5338918655495
57986
12.5360673051693
58212
12.538242744789
57694
12.5404181844088
57723
12.5425936240286
57820
12.5447690636483
57995
12.5469445032681
58022
12.5491199428879
58441
12.5512953825077
58297
12.5534708221274
58103
12.5556462617472
57924
12.557821701367
58215
12.5599971409868
57919
12.5621725806065
58037
12.5643480202263
58097
12.5665234598461
58300
12.5686988994659
58016
12.5708743390856
58533
12.5730497787054
58593
12.5752252183252
58686
12.577400657945
58327
12.5814563155059
58206
12.5863567086635
58423
12.5912571018211
58100
12.5961574949787
58552
12.6010578881364
58613
12.605958281294
58334
12.6108586744516
58550
12.6157590676092
58359
12.6206594607669
58557
12.6255598539245
58948
12.6304602470821
58933
12.6353606402397
58811
12.6402610333974
59031
12.645161426555
59605
12.6500618197126
59891
12.6549622128702
59971
12.6598626060279
60036
12.6647629991855
60343
12.6696633923431
59681
12.6745637855007
59538
12.6794641786584
58998
12.684364571816
58518
12.6892649649736
58780
12.6941653581313
58859
12.6990657512889
59817
12.7039661444465
60171
12.7088665376041
60606
12.7137669307618
61549
12.7186673239194
62230
12.723567717077
63770
12.7284681102346
64559
12.7333685033923
64045
12.7382688965499
62391
12.7431692897075
61022
12.7480696828651
59697
12.7529700760228
59380
12.7578704691804
58963
12.762770862338
58698
12.7676712554956
58047
12.7725716486533
57536
12.7774720418109
56644
12.7823724349685
56449
12.7872728281262
56327
12.7921732212838
57033
12.7970736144414
58461
12.801974007599
60750
12.8068744007567
64982
12.8117747939143
70291
12.8166751870719
76250
12.8215755802295
80562
12.8237337949447
80863
12.8246600164466
75074
12.8255862379484
67129
12.8265124594503
61410
12.8274386809522
57726
12.828364902454
55084
12.8292911239559
53417
12.8302173454578
52172
12.8311435669596
50388
12.8320697884615
49262
12.8329960099634
47931
12.8339222314653
47731
12.8348484529671
47027
12.835774674469
46650
12.8367008959709
46250
12.8376271174727
46133
12.8385533389746
45659
12.8394795604765
45287
12.8404057819784
45449
12.8413320034802
45255
12.8422582249821
45242
12.843184446484
45595
12.8441106679858
45171
12.8450368894877
45200
12.8459631109896
45353
12.8468893324914
45417
12.8478155539933
45147
12.8487417754952
45040
12.8496679969971
44926
12.8505942184989
45183
12.8515204400008
45001
12.8524466615027
44758
12.8533728830045
44982
12.8542991045064
44960
12.8552253260083
45152
12.8561515475101
45030
12.857077769012
45131
12.8580039905139
45385
12.8589302120158
45066
12.8598564335176
44944
12.8607826550195
44944
12.8617088765214
44902
12.8626350980232
44950
12.8635613195251
44924
12.864487541027
45001
12.8654137625288
44961
12.8663399840307
44701
12.8672662055326
44790
12.8681924270345
44909
12.8691186485363
44921
12.8720445390667
44565
12.8758688316243
44773
12.8796931241819
45064
12.8835174167395
44703
12.8873417092971
44936
12.8911660018547
44819
12.8949902944123
45041
12.8988145869699
45195
12.9026388795275
45034
12.9064631720851
44816
12.9102874646427
44611
12.9141117572003
44525
12.9179360497579
44673
12.9217603423155
45042
12.9255846348731
44882
12.9294089274307
44628
12.9332332199883
44521
12.9370575125459
44943
12.9408818051035
45347
12.9447060976611
44918
12.9485303902187
44738
12.9523546827763
45228
12.9561789753339
45073
12.9600032678915
44860
12.9638275604491
44741
12.9676518530068
44869
12.9714761455644
44676
12.975300438122
44897
12.9791247306796
45208
12.9829490232372
44848
12.9867733157948
44661
12.9905976083524
45079
12.99442190091
44851
12.9982461934676
44735
13.0020704860252
45077
13.0058947785828
44664
13.0097190711404
44869
13.013543363698
45086
13.0173676562556
44754
13.0211919488132
44957
13.0250162413708
44777
13.0288405339284
44890
13.032664826486
45087
13.0364891190436
45142
13.0403134116012
44913
13.0441377041588
44760
13.0479619967164
44800
13.051786289274
44858
13.0556105818316
44776
13.0594348743892
44733
13.0630649753225
44859
13.0666078307433
44777
13.0701506861641
44935
13.0736935415849
44980
13.0772363970058
45047
13.0807792524266
44829
13.0843221078474
44930
13.0878649632682
45006
13.0914078186891
45131
13.0949506741099
45165
13.0984935295307
45206
13.1020363849515
44747
13.1055792403724
44836
13.1091220957932
45117
13.112664951214
45304
13.1162078066348
45111
13.1197506620557
45086
13.1232935174765
45345
13.1268363728973
45056
13.1303792283181
44874
13.133922083739
44814
13.1374649391598
44911
13.1410077945806
44910
13.1445506500014
44967
13.1480935054223
45276
13.1516363608431
45160
13.1551792162639
44984
13.1587220716847
45177
13.1622649271056
44966
13.1658077825264
45118
13.1693506379472
45367
13.172893493368
45333
13.1764363487889
45063
13.1799792042097
45281
13.1835220596305
45059
13.1870649150513
45120
13.1906077704722
44823
13.194150625893
45140
13.1976934813138
45332
13.2012363367346
45265
13.2047791921555
45367
13.2083220475763
45478
13.2118649029971
45085
13.2154077584179
45072
13.2189506138388
45168
13.2224934692596
45126
13.2260363246804
45384
13.2295791801012
45190
13.2331220355221
44933
13.2366648909429
45272
13.2382475181579
45087
13.2389494631356
45263
13.2396514081132
45468
13.2403533530909
45230
13.2410552980686
44870
13.2417572430462
45146
13.2424591880239
45553
13.2431611330015
45257
13.2438630779792
45225
13.2445650229568
45205
13.2452669679345
45291
13.2459689129122
45294
13.2466708578898
45440
13.2473728028675
45337
13.2480747478451
45532
13.2487766928228
45231
13.2494786378004
45186
13.2501805827781
45432
13.2508825277557
45673
13.2515844727334
45594
13.2522864177111
45377
13.2529883626887
45666
13.2536903076664
45506
13.254392252644
45398
13.2550941976217
45561
13.2557961425993
45696
13.256498087577
45486
13.2572000325546
45449
13.2579019775323
45354
13.25860392251
45752
13.2593058674876
45484
13.2600078124653
45311
13.2607097574429
45165
13.2614117024206
45515
13.2621136473982
45681
13.2628155923759
46067
13.2635175373536
46078
13.2642194823312
45689
13.2649214273089
45601
13.2656233722865
45762
13.2666110806156
45957
13.2677271753778
45850
13.2688432701401
45701
13.2699593649023
45861
13.2710754596646
45664
13.2721915544268
45654
13.2733076491891
45880
13.2744237439513
46222
13.2755398387136
45908
13.2766559334759
45937
13.2777720282381
45972
13.2788881230004
46049
13.2800042177626
46043
13.2811203125249
45642
13.2822364072871
45966
13.2833525020494
46183
13.2844685968117
46250
13.2855846915739
45888
13.2867007863362
45541
13.2878168810984
45887
13.2889329758607
46016
13.2900490706229
46218
13.2911651653852
46162
13.2922812601474
46209
13.2933973549097
46400
13.294513449672
46269
13.2956295444342
46047
13.2967456391965
46351
13.2978617339587
46277
13.298977828721
46294
13.3000939234832
46287
13.3012100182455
46336
13.3023261130077
46293
13.30344220777
46448
13.3045583025323
46230
13.3056743972945
46213
13.3067904920568
46282
13.307906586819
46341
13.3090226815813
46311
13.3101387763435
46251
13.3112548711058
46208
13.3123709658681
46853
13.3134870606303
46589
13.3146031553926
46481
13.3157192501548
46522
13.3168353449171
46638
13.3179514396793
46499
13.3190675344416
46684
13.3201836292038
46763
13.3212997239661
46726
13.3224158187284
46517
13.3235319134906
46562
13.3246480082529
46653
13.3257641030151
46925
13.3268801977774
46734
13.3279962925396
46937
13.3291123873019
46561
13.3302284820641
47052
13.3313445768264
47043
13.3324606715887
46871
13.3360740479072
47203
13.3408093913017
47082
13.3455447346962
46998
13.3502800780907
47139
13.3550154214853
47043
13.3597507648798
46910
13.3644861082743
47354
13.3692214516688
47336
13.3739567950633
47327
13.3786921384579
47427
13.3834274818524
47501
13.3881628252469
46877
13.3928981686414
47094
13.397633512036
47585
13.4023688554305
47132
13.407104198825
47261
13.4118395422195
47173
13.416574885614
47023
13.4213102290086
47331
13.4260455724031
47659
13.4307809157976
47347
13.4355162591921
47287
13.4402516025866
47469
13.4449869459812
47407
13.4497222893757
47400
13.4544576327702
47614
13.4591929761647
47520
13.4639283195592
47249
13.4686636629538
47162
13.4733990063483
47793
13.4781343497428
47940
13.4828696931373
47602
13.4876050365319
47625
13.4923403799264
48023
13.4970757233209
47885
13.5018110667154
47861
13.5065464101099
48195
13.5112817535045
47898
13.516017096899
47558
13.5207524402935
47911
13.525487783688
47764
13.5302231270825
47937
13.5349584704771
48076
13.5396938138716
48120
13.5444291572661
48011
13.5491645006606
47801
13.5538998440551
48192
13.5586351874497
48294
13.5633705308442
48246
13.5681058742387
48243
13.5700232088614
48582
13.570674481572
48407
13.5713257542827
48332
13.5719770269933
48519
13.572628299704
48305
13.5732795724146
48237
13.5739308451253
48554
13.5745821178359
48708
13.5752333905466
48733
13.5758846632572
48762
13.5765359359679
48511
13.5771872086785
48627
13.5778384813892
48683
13.5784897540998
48503
13.5791410268105
48803
13.5797922995211
48715
13.5804435722318
48998
13.5810948449424
48858
13.5817461176531
48835
13.5823973903637
49037
13.5830486630744
49136
13.583699935785
49295
13.5843512084957
49420
13.5850024812063
49156
13.585653753917
49154
13.5863050266276
49318
13.5869562993383
49105
13.5876075720489
49384
13.5882588447596
49284
13.5889101174702
49282
13.5895613901809
49594
13.5902126628915
49186
13.5908639356022
49514
13.5915152083129
49851
13.5921664810235
49501
13.5928177537342
49618
13.5934690264448
49309
13.5941202991555
49704
13.5947715718661
49651
13.5954228445768
49875
13.5960741172874
49700
13.5967253899981
49825
13.5973766627087
49923
13.5980279354194
50350
13.59867920813
49885
13.5993304808407
50063
13.5999817535513
49900
13.600633026262
50422
13.6012842989726
50267
13.6019355716833
50194
13.6025868443939
50482
13.6032381171046
50596
13.6038893898152
50662
13.6045406625259
50556
13.6051919352365
50659
13.6058432079472
50726
13.6064944806578
50590
13.6071457533685
50766
13.6077970260791
50860
13.6084482987898
51085
13.6118098597655
50418
13.6163890864835
50267
13.6209683132015
50534
13.6255475399194
50993
13.6301267666374
50741
13.6347059933554
51218
13.6392852200734
51266
13.6438644467914
51025
13.6484436735094
51263
13.6530229002273
51188
13.6576021269453
51459
13.6621813536633
51561
13.6667605803813
51612
13.6713398070993
51522
13.6759190338173
51588
13.6804982605353
51532
13.6850774872532
51622
13.6896567139712
51860
13.6942359406892
51851
13.6988151674072
51994
13.7033943941252
52284
13.7079736208432
52058
13.7125528475611
52289
13.7171320742791
52577
13.7217113009971
52543
13.7262905277151
52603
13.7308697544331
52895
13.7354489811511
52937
13.740028207869
53565
13.744607434587
53629
13.749186661305
53541
13.753765888023
53447
13.758345114741
53524
13.762924341459
54594
13.7675035681769
53865
13.7720827948949
53701
13.7766620216129
53756
13.7812412483309
54031
13.7858204750489
53726
13.7903997017669
53723
13.7936541020307
54025
13.7963132904092
54718
13.7989724787878
54705
13.8016316671664
55350
13.804290855545
56079
13.8069500439236
56730
13.8096092323022
57583
13.8122684206807
58090
13.8149276090593
58547
13.8175867974379
58613
13.8202459858165
57938
13.8229051741951
57483
13.8255643625737
56860
13.8282235509522
55700
13.8308827393308
54479
13.8335419277094
53796
13.836201116088
53108
13.8388603044666
52454
13.8415194928452
52297
13.8441786812237
51746
13.8468378696023
51554
13.8494970579809
51776
13.8521562463595
51617
13.8548154347381
51668
13.8574746231167
51813
13.8601338114952
51591
13.8627929998738
51269
13.8654521882524
51295
13.868111376631
51551
13.8707705650096
51225
13.8734297533882
50236
13.8760889417667
48897
13.8787481301453
47932
13.8814073185239
47565
13.8840665069025
46684
13.8867256952811
46299
13.8893848836597
46543
13.8920440720382
46007
13.8947032604168
46385
13.8973624487954
47035
13.900021637174
48461
13.9026808255526
53204
13.9053400139312
65999
13.9079992023097
97669
13.9106583906883
119093
13.9133175790669
89259
13.9159767674455
53006
13.9186359558241
43156
13.9212951442027
42085
13.9239543325812
41464
13.9266135209598
41392
13.9292727093384
41067
13.931931897717
41234
13.9345910860956
41310
13.9372502744742
40963
13.9399094628527
40932
13.9425686512313
40994
13.9452278396099
40825
13.9478870279885
40862
13.9505462163671
41161
13.9530140215761
40855
13.9553958430422
40919
13.9577776645084
40949
13.9601594859745
41007
13.9625413074407
41057
13.9649231289068
41210
13.967304950373
41091
13.9696867718391
41283
13.9720685933052
41166
13.9744504147714
41043
13.9768322362375
41527
13.9792140577037
41614
13.9815958791698
41443
13.983977700636
41155
13.9863595221021
41573
13.9887413435683
41821
13.9911231650344
41721
13.9935049865005
41844
13.9958868079667
42100
13.9982686294328
42074
14.000650450899
42095
14.0030322723651
42230
14.0054140938313
42338
14.0077959152974
42328
14.0101777367636
42784
14.0125595582297
42709
14.0149413796959
42855
14.017323201162
42954
14.0197050226281
42904
14.0220868440943
42814
14.0244686655604
43240
14.0268504870266
43356
14.0292323084927
43625
14.0316141299589
43586
14.033995951425
43725
14.0363777728912
43678
14.0387595943573
43728
14.0411414158235
43444
14.0435232372896
43828
14.0459050587557
44076
14.0475732884249
44185
14.048920918881
44304
14.050268549337
44857
14.051616179793
45700
14.0529638102491
46237
14.0543114407051
47251
14.0556590711612
48341
14.0570067016172
49604
14.0583543320732
50323
14.0597019625293
50768
14.0610495929853
50448
14.0623972234414
49933
14.0637448538974
48843
14.0650924843534
47678
14.0664401148095
46417
14.0677877452655
45093
14.0691353757215
44206
14.0704830061776
43419
14.0718306366336
43103
14.0731782670897
42499
14.0745258975457
42056
14.0758735280017
41676
14.0772211584578
41179
14.0785687889138
40961
14.0799164193699
41110
14.0812640498259
40968
14.0826116802819
40907
14.083959310738
40786
14.085306941194
40710
14.0866545716501
40518
14.0880022021061
40608
14.0893498325621
40907
14.0906974630182
40806
14.0920450934742
40869
14.0933927239303
40864
14.0947403543863
40897
14.0960879848423
41207
14.0974356152984
40897
14.0987832457544
41408
14.1001308762105
41755
14.1014785066665
41616
14.1028261371225
41656
14.1041737675786
41899
14.1055213980346
42168
14.1068690284907
42210
14.1082166589467
42427
14.1095642894027
42675
14.1109119198588
43043
14.1122595503148
43043
14.1136071807708
43143
14.1163952702927
43601
14.1198305225833
43670
14.1232657748739
44086
14.1267010271645
44024
14.130136279455
44338
14.1335715317456
44285
14.1370067840362
44432
14.1404420363268
44457
14.1438772886173
44410
14.1473125409079
44256
14.1507477931985
44337
14.1541830454891
44810
14.1576182977797
45212
14.1610535500702
45684
14.1644888023608
46715
14.1679240546514
47954
14.171359306942
50424
14.1747945592326
53216
14.1782298115231
57130
14.1816650638137
60887
14.1851003161043
63544
14.1885355683949
64710
14.1919708206854
63605
14.195406072976
61046
14.1988413252666
57728
14.2022765775572
53123
14.2057118298478
48504
14.2091470821383
44711
14.2125823344289
41736
14.2160175867195
39892
14.2194528390101
38121
14.2228880913007
37103
14.2263233435912
36343
14.2297585958818
35581
14.2331938481724
35199
14.236629100463
34898
14.2400643527535
34683
14.2434996050441
34565
14.2469348573347
34419
14.2503701096253
34342
14.252524002417
33963
14.2541022119557
33915
14.2556804214944
34042
14.2572586310331
34216
14.2588368405717
34061
14.2604150501104
34035
14.2619932596491
33822
14.2635714691878
33899
14.2651496787264
34100
14.2667278882651
33898
14.2683060978038
34027
14.2698843073424
34007
14.2714625168811
33986
14.2730407264198
33983
14.2746189359585
34019
14.2761971454971
34090
14.2777753550358
34323
14.2793535645745
34204
14.2809317741132
34212
14.2825099836518
33973
14.2840881931905
34336
14.2856664027292
34180
14.2872446122679
34348
14.2888228218065
34479
14.2904010313452
34393
14.2919792408839
34331
14.2935574504226
34521
14.2951356599612
34424
14.2967138694999
34613
14.2982920790386
34556
14.2998702885772
34720
14.3014484981159
34780
14.3030267076546
34715
14.3046049171933
35023
14.3061831267319
35022
14.3077613362706
35155
14.3093395458093
35469
14.310917755348
35679
14.3124959648866
35638
14.3140741744253
35737
14.315652383964
35542
14.3172305935027
35636
14.3188088030413
35458
14.32038701258
35404
14.3219652221187
35417
14.3235434316573
35844
14.325121641196
35734
14.3266998507347
35696
14.3282780602734
36225
14.329856269812
36558
14.3314344793507
36164
14.3330126888894
36432
14.3345908984281
36374
14.3361691079667
36576
14.3377473175054
36266
14.3393255270441
36606
14.3409037365827
36580
14.3424819461214
36349
14.3440601556601
36836
14.3456383651988
36921
14.3472165747374
36945
14.3487947842761
36987
14.3503729938148
37191
14.3519512033535
37716
14.3535294128921
38188
14.3551076224308
38746
14.3566858319695
38489
14.3582640415082
38122
14.3598422510468
38231
14.3614204605855
38300
14.3629986701242
37940
14.3645768796629
37990
14.3661550892015
38270
14.3677332987402
38357
14.3693115082789
38499
14.3708897178175
38678
14.3724679273562
38517
14.3740461368949
38569
14.3756243464336
39036
14.3772025559722
39027
14.3787807655109
38520
14.3803589750496
38963
14.3819371845883
39275
14.3835153941269
39354
14.3850936036656
39398
14.3866718132043
39227
14.3882500227429
39804
14.3898282322816
39896
14.3914064418203
40425
14.392984651359
40370
14.3969653994619
40513
14.4020255489489
40684
14.4070856984358
40743
14.4121458479227
40839
14.4172059974097
41149
14.4222661468966
41432
14.4273262963835
41670
14.4323864458704
42351
14.4374465953574
42487
14.4425067448443
43344
14.4475668943312
43753
14.4526270438181
43738
14.4576871933051
43811
14.462747342792
43391
14.4678074922789
43007
14.4728676417659
42556
14.4779277912528
42160
14.4829879407397
42148
14.4880480902266
42076
14.4931082397136
42681
14.4981683892005
42735
14.5032285386874
43126
14.5082886881744
43297
14.5133488376613
43655
14.5184089871482
43875
14.5234691366351
44466
14.5285292861221
44740
14.533589435609
44971
14.5386495850959
45107
14.5437097345829
45513
14.5487698840698
45935
14.5538300335567
46662
14.5588901830436
46876
14.5639503325306
47571
14.5690104820175
48106
14.5740706315044
48921
14.5791307809914
49716
14.5841909304783
50104
14.5892510799652
50294
14.5943112294521
50725
14.5993713789391
51074
14.604431528426
50731
14.6094916779129
50809
14.6145518273998
51146
14.6196119768868
51556
14.6246721263737
52726
14.6297322758606
53950
14.6347924253476
56091
14.6398525748345
58699
14.6449127243214
62137
14.6483158608682
67862
14.6509745423259
75651
14.6536332237837
83870
14.6562919052414
88875
14.6589505866992
88349
14.6616092681569
83083
14.6642679496147
78155
14.6669266310724
72031
14.6695853125302
64867
14.6722439939879
59412
14.6749026754456
57915
14.6775613569034
60321
14.6802200383611
67298
14.6828787198189
78009
14.6855374012766
87789
14.6881960827344
89827
14.6908547641921
86057
14.6935134456498
79555
14.6961721271076
70536
14.6988308085653
58920
14.7014894900231
46229
14.7041481714808
36072
14.7068068529386
29160
14.7094655343963
25032
14.712124215854
22544
14.7147828973118
20551
14.7174415787695
19110
14.7201002602273
18331
14.722758941685
17639
14.7254176231428
17006
14.7280763046005
16455
14.7307349860583
16117
14.733393667516
15851
14.7360523489737
15625
14.7387110304315
15460
14.7413697118892
15264
14.744028393347
15205
14.7466870748047
15418
14.7493457562625
14908
14.7520044377202
14855
14.7546631191779
14685
14.7573218006357
14811
14.7599804820934
14752
14.7626391635512
14405
14.7652978450089
14478
14.7679565264667
14476
14.7706152079244
14584
14.7732738893821
14386
14.7759325708399
14575
14.7785912522976
14384
14.7812499337554
14302
14.7839086152131
14385
14.7865672966709
14285
14.7892259781286
14290
14.7918846595864
14418
14.7945433410441
14302
14.7972020225018
14197
14.7998607039596
14323
14.8025193854173
14449
14.8051780668751
14569
14.8049420561733
14740
14.8034055316027
14586
14.8018690070321
14394
14.8003324824615
14527
14.798795957891
14459
14.7972594333204
14362
14.7957229087498
14510
14.7941863841792
14552
14.7926498596087
14567
14.7911133350381
14443
14.7895768104675
14665
14.7880402858969
14601
14.7865037613263
14592
14.7849672367558
14697
14.7834307121852
14738
14.7818941876146
14758
14.780357663044
14692
14.7788211384735
14745
14.7772846139029
14761
14.7757480893323
14846
14.7742115647617
15046
14.7726750401911
15074
14.7711385156206
14995
14.76960199105
14973
14.7680654664794
14939
14.7665289419088
14976
14.7649924173383
14941
14.7634558927677
15040
14.7619193681971
15265
14.7603828436265
15406
14.7588463190559
15267
14.7573097944854
15344
14.7557732699148
15431
14.7542367453442
15241
14.7527002207736
15451
14.7511636962031
15354
14.7496271716325
15711
14.7480906470619
15561
14.7465541224913
15721
14.7450175979208
15534
14.7434810733502
15702
14.7419445487796
15890
14.740408024209
15858
14.7388714996384
15825
14.7373349750679
15791
14.7357984504973
15974
14.7342619259267
15913
14.7327254013561
15885
14.7311888767856
15990
14.729652352215
16265
14.7281158276444
16132
14.7265793030738
16133
14.7250427785032
16330
14.7235062539327
16317
14.7219697293621
16392
14.7204332047915
16416
14.7240294164187
16615
14.7299316399609
16587
14.7358338635031
16582
14.7417360870452
16501
14.7476383105874
16820
14.7535405341296
16799
14.7594427576717
16861
14.7653449812139
17048
14.7712472047561
17068
14.7771494282983
17099
14.7830516518404
17077
14.7889538753826
17100
14.7948560989248
17299
14.8007583224669
17321
14.8066605460091
17292
14.8125627695513
17470
14.8184649930934
17555
14.8243672166356
17313
14.8302694401778
17504
14.83617166372
17663
14.8420738872621
17782
14.8479761108043
17721
14.8538783343465
17969
14.8597805578886
18051
14.8656827814308
18073
14.871585004973
18269
14.8774872285151
18296
14.8833894520573
18450
14.8892916755995
18391
14.8951938991416
18761
14.9010961226838
18726
14.906998346226
18871
14.9129005697681
18919
14.9188027933103
18869
14.9247050168525
18956
14.9306072403947
19155
14.9365094639368
19345
14.942411687479
19343
14.9483139110212
19433
14.9542161345633
19583
14.9601183581055
19563
14.9660205816477
19606
14.9719228051898
19675
14.977825028732
20009
14.9837272522742
20017
14.9896294758164
20077
14.9955316993585
20545
15.0014339229007
20859
15.0073361464429
20665
15.013238369985
20926
15.0191405935272
21264
15.0250428170694
21394
15.0309450406115
21631
15.0368472641537
21768
15.0427494876959
21854
15.048651711238
22577
15.0545539347802
22792
15.0604561583224
22916
15.0663583818645
22588
15.0722606054067
22181
15.0781628289489
21938
15.0840650524911
21529
15.0899672760332
21051
15.0958694995754
20690
15.1017717231176
20644
15.1076739466597
20222
15.1135761702019
20117
15.1194783937441
20307
15.1253806172862
20574
15.1312828408284
20973
15.1371850643706
21256
15.1430872879128
21775
15.1489895114549
22304
15.1548917349971
22489
15.1607939585393
23088
15.1666961820814
23450
15.1725984056236
23823
15.1785006291658
24089
15.1844028527079
24285
15.1903050762501
24971
15.1962072997923
25542
15.2021095233344
26536
15.2080117468766
27926
15.2139139704188
29421
15.219816193961
30079
15.2257184175031
30563
15.2316206410453
30029
15.2375228645875
29337
15.2434250881296
28271
15.2493273116718
27362
15.255229535214
28090
15.2611317587561
30123
15.2670339822983
29871
15.2729362058405
28297
15.2788384293826
26857
15.2847406529248
25630
15.290642876467
24141
15.2965451000092
22938
15.3024473235513
25264
15.3083495470935
38131
15.3142517706357
65744
15.3201539941778
86472
15.32605621772
101415
15.3319584412622
97191
15.3378606648043
78989
15.3437628883465
67404
15.3496651118887
54384
15.3555673354308
35654
15.361469558973
14898
15.3673717825152
4191
15.3732740060574
2109
15.3791762295995
1483
15.3850784531417
1159
15.3909806766839
1001
15.396882900226
951
15.4027851237682
896
15.4086873473104
906
15.4145895708525
1017
15.4204917943947
1409
15.4263940179369
2453
15.432296241479
3728
15.4381984650212
4250
15.4441006885634
4080
15.4500029121056
3762
15.4559051356477
3093
15.4618073591899
2166
15.4677095827321
1964
15.4736118062742
2493
15.4795140298164
2506
15.4854162533586
1443
15.4913184769007
409
15.4972207004429
65
15.5031229239851
31
15.5090251475272
19
15.5149273710694
15
15.5208295946116
2: O 1s
Ta
2020
2
10
10
42
32
1
36
Creation
Created by : DESKTOP-MI6NA2R\kratos
Date created : 10/02/2020 10:42
Computer : DESKTOP-MI6NA2R
Location
Location ID : Ta
Sample : Ta
Description : (55.796,2.896,-0.800)mm
Tilt : 0.00
Charge Neutraliser : Off
Settings
Excitation
Mode : XPS - monochromatic
Tuning : Spectroscopy
Emission current : 15.00mA
Anode library : Al
ESCA modes
Collimation : Slot
Lens : Hybrid
Resolution : 20.00
Scan
Deflection : (0.000, 0.000)mm
O 1s : 943.690-961.690eV, Sweeps 4
Start : 943.690eV
End : 961.690eV
Centre : 952.690eV
Width : 18.000eV
Step size : 0.200eV
Number Steps : 90
Dwell time : 659ms
Sweep time : 60s
Sweeps : 4
Instrument Conditions
Work function : -4.50
Acquisition Conditions
X-ray Power : 225.00W
XPS
2
55.7963036326509
2.89567917788632
-0.8
Al (mono)
1486.69
225
1E+37
1E+37
1E+37
1E+37
FAT
20
1E+37
-4.5
1E+37
1E+37
1E+37
1E+37
1E+37
O
1s
-1
Kinetic energy
eV
943.69
0.2
2
Intensity
d
Transmission
d
pulse counting
0.659341
4
0
1E+37
1E+37
1E+37
0
182
19746
80673
0.694879764806946
0.695782442442153
22606
0.694879764806946
22432
0.694889794558448
22128
0.694899824309951
22405
0.694909854061453
22255
0.694919883812955
22298
0.694929913564458
22232
0.69493994331596
22205
0.694949973067462
22082
0.694960002818964
22253
0.694970032570467
22310
0.694980062321969
21808
0.694990092073471
22037
0.695000121824974
22349
0.695010151576476
22285
0.695020181327978
22051
0.695030211079481
22103
0.695040240830983
22235
0.695050270582485
21979
0.695060300333987
22112
0.69507033008549
21878
0.695080359836992
21690
0.695090389588494
21636
0.695100419339997
21671
0.695110449091499
21599
0.695120478843001
21677
0.695130508594504
21744
0.695140538346006
21699
0.695150568097508
21569
0.695160597849011
21542
0.695170627600513
21384
0.695180657352015
21490
0.695190687103517
21406
0.69520071685502
21398
0.695210746606522
21273
0.695220776358024
21334
0.695230806109527
21587
0.695240835861029
21501
0.695250865612531
21763
0.695260895364034
21906
0.695270925115536
22347
0.695280954867038
22449
0.69529098461854
22668
0.695301014370043
23095
0.695311044121545
23402
0.695321073873047
23958
0.69533110362455
24491
0.695341133376052
24718
0.695351163127554
25585
0.695361192879057
26525
0.695371222630559
27690
0.695381252382061
29725
0.695391282133563
32421
0.695401311885066
37302
0.695411341636568
43985
0.69542137138807
54158
0.695431401139573
65118
0.695441430891075
74895
0.695451460642577
80673
0.69546149039408
79089
0.695471520145582
71138
0.695481549897084
59330
0.695491579648587
46424
0.695501609400089
36277
0.695511639151591
29138
0.695521668903093
24901
0.695531698654596
22476
0.695541728406098
21418
0.6955517581576
20825
0.695561787909103
20274
0.695571817660605
20508
0.695581847412107
20357
0.69559187716361
20177
0.695601906915112
20253
0.695611936666614
20290
0.695621966418116
20256
0.695631996169619
20106
0.695642025921121
19991
0.695652055672623
20191
0.695662085424126
20149
0.695672115175628
20030
0.69568214492713
20015
0.695692174678633
20012
0.695702204430135
20057
0.695712234181637
20154
0.69572226393314
20150
0.695732293684642
19848
0.695742323436144
19746
0.695752353187646
19843
0.695762382939149
20113
0.695772412690651
19926
0.695782442442153
2: Ta 4f
Ta
2020
2
10
10
42
32
1
36
Creation
Created by : DESKTOP-MI6NA2R\kratos
Date created : 10/02/2020 10:42
Computer : DESKTOP-MI6NA2R
Location
Location ID : Ta
Sample : Ta
Description : (55.796,2.896,-0.800)mm
Tilt : 0.00
Charge Neutraliser : Off
Settings
Excitation
Mode : XPS - monochromatic
Tuning : Spectroscopy
Emission current : 15.00mA
Anode library : Al
ESCA modes
Collimation : Slot
Lens : Hybrid
Resolution : 20.00
Scan
Deflection : (0.000, 0.000)mm
Ta 4f : 1451.690-1469.690eV, Sweeps 4
Start : 1451.690eV
End : 1469.690eV
Centre : 1460.690eV
Width : 18.000eV
Step size : 0.200eV
Number Steps : 90
Dwell time : 659ms
Sweep time : 60s
Sweeps : 4
Instrument Conditions
Work function : -4.50
Acquisition Conditions
X-ray Power : 225.00W
XPS
3
55.7963036326509
2.89567917788632
-0.8
Al (mono)
1486.69
225
1E+37
1E+37
1E+37
1E+37
FAT
20
1E+37
-4.5
1E+37
1E+37
1E+37
1E+37
1E+37
Ta
4f
-1
Kinetic energy
eV
1451.69
0.2
2
Intensity
d
Transmission
d
pulse counting
0.659341
4
0
1E+37
1E+37
1E+37
0
182
498
64947
0.679050640006433
0.681483452347408
11842
0.679050640006433
11695
0.679077671254666
11484
0.679104702502899
11720
0.679131733751132
11490
0.679158764999365
11282
0.679185796247598
10995
0.679212827495831
10782
0.679239858744064
10584
0.679266889992297
10289
0.67929392124053
10088
0.679320952488763
9479
0.679347983736996
9190
0.679375014985229
8869
0.679402046233462
8853
0.679429077481696
8821
0.679456108729929
8783
0.679483139978162
8888
0.679510171226395
8962
0.679537202474628
9255
0.679564233722861
9740
0.679591264971094
10044
0.679618296219327
10426
0.67964532746756
11470
0.679672358715793
13001
0.679699389964026
15529
0.679726421212259
19678
0.679753452460492
25181
0.679780483708725
32835
0.679807514956958
40318
0.679834546205191
45946
0.679861577453425
46670
0.679888608701658
43431
0.679915639949891
38873
0.679942671198124
35604
0.679969702446357
35122
0.67999673369459
38675
0.680023764942823
45499
0.680050796191056
54259
0.680077827439289
61283
0.680104858687522
64947
0.680131889935755
62192
0.680158921183988
55685
0.680185952432221
48118
0.680212983680454
42677
0.680240014928687
38586
0.680267046176921
35838
0.680294077425154
33866
0.680321108673387
32679
0.68034813992162
33032
0.680375171169853
33905
0.680402202418086
35268
0.680429233666319
36902
0.680456264914552
36927
0.680483296162785
35335
0.680510327411018
31624
0.680537358659251
27072
0.680564389907484
23833
0.680591421155717
22581
0.68061845240395
22790
0.680645483652183
23908
0.680672514900416
24912
0.68069954614865
25054
0.680726577396883
22539
0.680753608645116
17986
0.680780639893349
12506
0.680807671141582
7303
0.680834702389815
4031
0.680861733638048
2369
0.680888764886281
1838
0.680915796134514
1643
0.680942827382747
1333
0.68096985863098
1251
0.680996889879213
1109
0.681023921127446
1037
0.681050952375679
932
0.681077983623912
856
0.681105014872146
766
0.681132046120379
751
0.681159077368612
739
0.681186108616845
665
0.681213139865078
662
0.681240171113311
605
0.681267202361544
558
0.681294233609777
576
0.68132126485801
555
0.681348296106243
513
0.681375327354476
522
0.681402358602709
540
0.681429389850942
498
0.681456421099175
509
0.681483452347408
end of experiment
