VAMAS Surface Chemical Analysis Standard Data Transfer Format 1988 May 4
Not specified
MI-600-BE9240AA
DESKTOP-MI6NA2R\kratos
20200205_Al_foil_ARXPS.experiment
0
NORM
REGULAR
1
4
Index
d
PositionX [mm]
n
PositionY [mm]
n
PositionZ [mm]
n
0
0
0
0
1
wide
Al_foil_grounded
2020
2
5
15
56
4
1
36
Creation
Created by : DESKTOP-MI6NA2R\kratos
Date created : 05/02/2020 15:56
Computer : DESKTOP-MI6NA2R
Location
Location ID : Al_foil_grounded
Sample : Al_foil_grounded
Description : (33.028,11.809,-0.189)mm
Tilt : 0.00
Charge Neutraliser : Off
Settings
Excitation
Mode : XPS - monochromatic
Tuning : Spectroscopy
Emission current : 15.00mA
Anode library : Al
ESCA modes
Collimation : Slot
Lens : Hybrid
Resolution : 160.00
Scan
Deflection : (0.000, 0.000)mm
wide : 286.690-1491.690eV, Sweeps 1
Start : 286.690eV
End : 1491.690eV
Centre : 889.190eV
Width : 1205.000eV
Step size : 1.000eV
Number Steps : 1205
Dwell time : 100ms
Sweep time : 120s
Sweeps : 1
Instrument Conditions
Work function : -4.50
Acquisition Conditions
X-ray Power : 225.00W
XPS
1
33.02775
11.80921875
-0.188890625
Al (mono)
1486.69
225
1E+37
1E+37
1E+37
1E+37
FAT
160
1E+37
-4.5
1E+37
1E+37
1E+37
1E+37
1E+37
wide

-1
Kinetic energy
eV
286.69
1
2
Intensity
d
Transmission
d
pulse counting
0.0995024875621891
1
0
1E+37
1E+37
1E+37
0
2412
1
81848
12.1974630554708
15.5208295946116
11672
12.1974630554708
11752
12.2024375034573
11705
12.2074119514438
11639
12.2123863994304
11746
12.2173608474169
11528
12.2223352954034
11439
12.22730974339
11607
12.2322841913765
11655
12.237258639363
11786
12.2422330873496
12011
12.2472075353361
11789
12.2521819833226
11920
12.2571564313091
11881
12.2621308792957
12062
12.2671053272822
12091
12.2720797752687
11955
12.2770542232553
12006
12.2820286712418
11941
12.2870031192283
12016
12.2919775672149
11996
12.2969520152014
11928
12.3019264631879
12131
12.3069009111744
12159
12.311875359161
12280
12.3141080878022
12213
12.3151090294912
12314
12.3161099711802
12214
12.3171109128691
12237
12.3181118545581
12308
12.3191127962471
12365
12.3201137379361
12244
12.3211146796251
12276
12.3221156213141
12347
12.323116563003
12308
12.324117504692
12503
12.325118446381
12601
12.32611938807
12616
12.327120329759
12549
12.328121271448
12492
12.3291222131369
12539
12.3301231548259
12813
12.3311240965149
12713
12.3321250382039
12594
12.3331259798929
12808
12.3341269215819
12928
12.3351278632708
12886
12.3361288049598
12774
12.3371297466488
12870
12.3381306883378
12840
12.3391316300268
13007
12.3401325717158
13004
12.3411335134047
12947
12.3421344550937
13205
12.3431353967827
13089
12.3441363384717
13173
12.3451372801607
13195
12.3461382218497
13111
12.3471391635386
13175
12.3481401052276
13150
12.3491410469166
13201
12.3501419886056
13278
12.3511429302946
13412
12.3521438719836
13487
12.3531448136725
13496
12.3541457553615
13465
12.3551466970505
13461
12.3561476387395
13493
12.3571485804285
13598
12.3581495221175
13756
12.3591504638064
13662
12.3601514054954
13618
12.3611523471844
13703
12.3621532888734
13742
12.3631542305624
13857
12.3649250943483
13945
12.3670418651634
13819
12.3691586359784
13919
12.3712754067935
13900
12.3733921776085
13892
12.3755089484236
14058
12.3776257192386
14144
12.3797424900537
14008
12.3818592608687
14272
12.3839760316838
14184
12.3860928024988
14390
12.3882095733139
14121
12.3903263441289
14228
12.392443114944
14403
12.394559885759
14416
12.3966766565741
14358
12.3987934273891
14310
12.4009101982042
14456
12.4030269690192
14472
12.4051437398343
14552
12.4072605106493
14508
12.4093772814644
14304
12.4114940522794
14492
12.4136108230945
14782
12.4157275939095
14865
12.4178443647246
14677
12.4199611355396
14769
12.4220779063546
14581
12.4241946771697
14776
12.4263114479847
14885
12.4284282187998
14991
12.4305449896148
14916
12.4326617604299
14950
12.4347785312449
14998
12.43689530206
15019
12.439012072875
14976
12.4411288436901
15176
12.4432456145051
15245
12.4453623853202
15364
12.4474791561352
15285
12.4495959269503
15466
12.4517126977653
15601
12.4538294685804
15470
12.4559462393954
15539
12.4580630102105
15555
12.4601797810255
15628
12.4622965518406
15798
12.4644133226556
15725
12.4665300934707
15758
12.4686468642857
15707
12.470804116576
15791
12.4729795561958
15967
12.4751549958156
16072
12.4773304354353
16016
12.4795058750551
16108
12.4816813146749
16125
12.4838567542947
16257
12.4860321939144
16366
12.4882076335342
16521
12.490383073154
16432
12.4925585127738
16473
12.4947339523935
16409
12.4969093920133
16695
12.4990848316331
16858
12.5012602712529
16949
12.5034357108726
16788
12.5056111504924
16959
12.5077865901122
16765
12.509962029732
17013
12.5121374693517
17135
12.5143129089715
17075
12.5164883485913
17182
12.5186637882111
17417
12.5208392278308
17448
12.5230146674506
17453
12.5251901070704
17427
12.5273655466902
17747
12.5295409863099
17536
12.5317164259297
17683
12.5338918655495
17887
12.5360673051693
17770
12.538242744789
18266
12.5404181844088
18113
12.5425936240286
17863
12.5447690636483
18066
12.5469445032681
18333
12.5491199428879
18380
12.5512953825077
18393
12.5534708221274
18329
12.5556462617472
18591
12.557821701367
18486
12.5599971409868
18468
12.5621725806065
18667
12.5643480202263
19058
12.5665234598461
18963
12.5686988994659
19131
12.5708743390856
19170
12.5730497787054
18943
12.5752252183252
19048
12.577400657945
19410
12.5814563155059
19585
12.5863567086635
19628
12.5912571018211
19929
12.5961574949787
19950
12.6010578881364
20148
12.605958281294
20461
12.6108586744516
20668
12.6157590676092
20589
12.6206594607669
20649
12.6255598539245
20882
12.6304602470821
20864
12.6353606402397
20761
12.6402610333974
20764
12.645161426555
20536
12.6500618197126
20335
12.6549622128702
20284
12.6598626060279
20342
12.6647629991855
20415
12.6696633923431
20916
12.6745637855007
21090
12.6794641786584
21782
12.684364571816
22561
12.6892649649736
23010
12.6941653581313
23575
12.6990657512889
24237
12.7039661444465
24220
12.7088665376041
23975
12.7137669307618
23139
12.7186673239194
21825
12.723567717077
21071
12.7284681102346
20336
12.7333685033923
19971
12.7382688965499
19340
12.7431692897075
18330
12.7480696828651
17770
12.7529700760228
17476
12.7578704691804
16991
12.762770862338
17136
12.7676712554956
17113
12.7725716486533
17536
12.7774720418109
18532
12.7823724349685
20326
12.7872728281262
22697
12.7921732212838
25291
12.7970736144414
27935
12.801974007599
29934
12.8068744007567
30487
12.8117747939143
29444
12.8166751870719
26365
12.8215755802295
23319
12.8237337949447
20914
12.8246600164466
19195
12.8255862379484
18005
12.8265124594503
16536
12.8274386809522
15034
12.828364902454
13769
12.8292911239559
12196
12.8302173454578
10760
12.8311435669596
9556
12.8320697884615
8647
12.8329960099634
7930
12.8339222314653
7715
12.8348484529671
7625
12.835774674469
7596
12.8367008959709
7559
12.8376271174727
7388
12.8385533389746
7449
12.8394795604765
7314
12.8404057819784
7264
12.8413320034802
7221
12.8422582249821
7398
12.843184446484
7366
12.8441106679858
7459
12.8450368894877
7250
12.8459631109896
7127
12.8468893324914
7280
12.8478155539933
7236
12.8487417754952
7285
12.8496679969971
7363
12.8505942184989
7311
12.8515204400008
7371
12.8524466615027
7293
12.8533728830045
7450
12.8542991045064
7248
12.8552253260083
7345
12.8561515475101
7346
12.857077769012
7358
12.8580039905139
7412
12.8589302120158
7359
12.8598564335176
7437
12.8607826550195
7343
12.8617088765214
7325
12.8626350980232
7300
12.8635613195251
7308
12.864487541027
7295
12.8654137625288
7336
12.8663399840307
7271
12.8672662055326
7305
12.8681924270345
7406
12.8691186485363
7389
12.8720445390667
7408
12.8758688316243
7360
12.8796931241819
7329
12.8835174167395
7376
12.8873417092971
7373
12.8911660018547
7325
12.8949902944123
7470
12.8988145869699
7449
12.9026388795275
7400
12.9064631720851
7564
12.9102874646427
7632
12.9141117572003
7568
12.9179360497579
7479
12.9217603423155
7252
12.9255846348731
7362
12.9294089274307
7429
12.9332332199883
7438
12.9370575125459
7447
12.9408818051035
7489
12.9447060976611
7536
12.9485303902187
7454
12.9523546827763
7433
12.9561789753339
7391
12.9600032678915
7391
12.9638275604491
7476
12.9676518530068
7403
12.9714761455644
7506
12.975300438122
7446
12.9791247306796
7469
12.9829490232372
7510
12.9867733157948
7554
12.9905976083524
7486
12.99442190091
7388
12.9982461934676
7426
13.0020704860252
7496
13.0058947785828
7515
13.0097190711404
7654
13.013543363698
7535
13.0173676562556
7479
13.0211919488132
7607
13.0250162413708
7421
13.0288405339284
7450
13.032664826486
7405
13.0364891190436
7441
13.0403134116012
7525
13.0441377041588
7458
13.0479619967164
7638
13.051786289274
7594
13.0556105818316
7681
13.0594348743892
7570
13.0630649753225
7527
13.0666078307433
7619
13.0701506861641
7588
13.0736935415849
7612
13.0772363970058
7628
13.0807792524266
7800
13.0843221078474
7635
13.0878649632682
7564
13.0914078186891
7607
13.0949506741099
7655
13.0984935295307
7634
13.1020363849515
7617
13.1055792403724
7598
13.1091220957932
7499
13.112664951214
7693
13.1162078066348
7821
13.1197506620557
7778
13.1232935174765
7661
13.1268363728973
7531
13.1303792283181
7627
13.133922083739
7688
13.1374649391598
7665
13.1410077945806
7601
13.1445506500014
7587
13.1480935054223
7700
13.1516363608431
7696
13.1551792162639
7568
13.1587220716847
7588
13.1622649271056
7655
13.1658077825264
7627
13.1693506379472
7759
13.172893493368
7822
13.1764363487889
7771
13.1799792042097
7791
13.1835220596305
7764
13.1870649150513
7658
13.1906077704722
7806
13.194150625893
7734
13.1976934813138
7804
13.2012363367346
7871
13.2047791921555
7848
13.2083220475763
7749
13.2118649029971
7724
13.2154077584179
7828
13.2189506138388
7792
13.2224934692596
7823
13.2260363246804
7754
13.2295791801012
7810
13.2331220355221
7872
13.2366648909429
7918
13.2382475181579
7924
13.2389494631356
7872
13.2396514081132
7804
13.2403533530909
7806
13.2410552980686
7788
13.2417572430462
7916
13.2424591880239
7996
13.2431611330015
7975
13.2438630779792
7818
13.2445650229568
7908
13.2452669679345
7892
13.2459689129122
8008
13.2466708578898
7882
13.2473728028675
7924
13.2480747478451
8012
13.2487766928228
7993
13.2494786378004
8004
13.2501805827781
7918
13.2508825277557
8039
13.2515844727334
8050
13.2522864177111
8180
13.2529883626887
7990
13.2536903076664
7984
13.254392252644
8088
13.2550941976217
8094
13.2557961425993
8014
13.256498087577
8052
13.2572000325546
8017
13.2579019775323
8034
13.25860392251
8082
13.2593058674876
8001
13.2600078124653
8098
13.2607097574429
8020
13.2614117024206
8093
13.2621136473982
8120
13.2628155923759
8133
13.2635175373536
8207
13.2642194823312
8137
13.2649214273089
8230
13.2656233722865
8115
13.2666110806156
8162
13.2677271753778
8119
13.2688432701401
8141
13.2699593649023
8253
13.2710754596646
8160
13.2721915544268
8341
13.2733076491891
8112
13.2744237439513
8100
13.2755398387136
8233
13.2766559334759
8227
13.2777720282381
8404
13.2788881230004
8419
13.2800042177626
8319
13.2811203125249
8181
13.2822364072871
8390
13.2833525020494
8378
13.2844685968117
8317
13.2855846915739
8278
13.2867007863362
8312
13.2878168810984
8327
13.2889329758607
8347
13.2900490706229
8419
13.2911651653852
8446
13.2922812601474
8434
13.2933973549097
8509
13.294513449672
8566
13.2956295444342
8598
13.2967456391965
8415
13.2978617339587
8455
13.298977828721
8565
13.3000939234832
8588
13.3012100182455
8495
13.3023261130077
8626
13.30344220777
8584
13.3045583025323
8553
13.3056743972945
8425
13.3067904920568
8509
13.307906586819
8515
13.3090226815813
8532
13.3101387763435
8577
13.3112548711058
8689
13.3123709658681
8571
13.3134870606303
8682
13.3146031553926
8623
13.3157192501548
8630
13.3168353449171
8586
13.3179514396793
8758
13.3190675344416
8694
13.3201836292038
8708
13.3212997239661
8811
13.3224158187284
8909
13.3235319134906
8761
13.3246480082529
8820
13.3257641030151
8745
13.3268801977774
8788
13.3279962925396
8705
13.3291123873019
8713
13.3302284820641
8738
13.3313445768264
8896
13.3324606715887
8930
13.3360740479072
9070
13.3408093913017
8862
13.3455447346962
8977
13.3502800780907
8947
13.3550154214853
8988
13.3597507648798
8916
13.3644861082743
9058
13.3692214516688
9064
13.3739567950633
9192
13.3786921384579
9345
13.3834274818524
9127
13.3881628252469
9021
13.3928981686414
9162
13.397633512036
9143
13.4023688554305
9194
13.407104198825
9390
13.4118395422195
9425
13.416574885614
9403
13.4213102290086
9237
13.4260455724031
9185
13.4307809157976
9347
13.4355162591921
9239
13.4402516025866
9248
13.4449869459812
9352
13.4497222893757
9279
13.4544576327702
9286
13.4591929761647
9443
13.4639283195592
9453
13.4686636629538
9494
13.4733990063483
9409
13.4781343497428
9590
13.4828696931373
9522
13.4876050365319
9459
13.4923403799264
9476
13.4970757233209
9706
13.5018110667154
9723
13.5065464101099
9661
13.5112817535045
9480
13.516017096899
9596
13.5207524402935
9750
13.525487783688
9705
13.5302231270825
9861
13.5349584704771
9772
13.5396938138716
9723
13.5444291572661
9690
13.5491645006606
9823
13.5538998440551
9906
13.5586351874497
9956
13.5633705308442
9873
13.5681058742387
10055
13.5700232088614
9938
13.570674481572
9778
13.5713257542827
10033
13.5719770269933
10058
13.572628299704
10003
13.5732795724146
10089
13.5739308451253
10094
13.5745821178359
10206
13.5752333905466
10294
13.5758846632572
10180
13.5765359359679
10270
13.5771872086785
10295
13.5778384813892
10252
13.5784897540998
10361
13.5791410268105
10296
13.5797922995211
10314
13.5804435722318
10434
13.5810948449424
10446
13.5817461176531
10640
13.5823973903637
10525
13.5830486630744
10501
13.583699935785
10644
13.5843512084957
10820
13.5850024812063
10487
13.585653753917
10569
13.5863050266276
10599
13.5869562993383
10615
13.5876075720489
10879
13.5882588447596
10866
13.5889101174702
10952
13.5895613901809
10962
13.5902126628915
10883
13.5908639356022
10828
13.5915152083129
11040
13.5921664810235
11110
13.5928177537342
10957
13.5934690264448
11142
13.5941202991555
11146
13.5947715718661
11178
13.5954228445768
11317
13.5960741172874
11445
13.5967253899981
11224
13.5973766627087
11315
13.5980279354194
11381
13.59867920813
11644
13.5993304808407
11570
13.5999817535513
11533
13.600633026262
11648
13.6012842989726
11736
13.6019355716833
11564
13.6025868443939
11700
13.6032381171046
11612
13.6038893898152
11762
13.6045406625259
11934
13.6051919352365
11964
13.6058432079472
11880
13.6064944806578
11944
13.6071457533685
12109
13.6077970260791
12266
13.6084482987898
12111
13.6118098597655
12184
13.6163890864835
12282
13.6209683132015
12228
13.6255475399194
12516
13.6301267666374
12408
13.6347059933554
12445
13.6392852200734
12495
13.6438644467914
12597
13.6484436735094
12462
13.6530229002273
12591
13.6576021269453
12648
13.6621813536633
12726
13.6667605803813
12755
13.6713398070993
12854
13.6759190338173
13074
13.6804982605353
12998
13.6850774872532
13064
13.6896567139712
13092
13.6942359406892
13154
13.6988151674072
13299
13.7033943941252
13278
13.7079736208432
13465
13.7125528475611
13553
13.7171320742791
13378
13.7217113009971
13485
13.7262905277151
13577
13.7308697544331
13535
13.7354489811511
13725
13.740028207869
13718
13.744607434587
13810
13.749186661305
14069
13.753765888023
14074
13.758345114741
14053
13.762924341459
14301
13.7675035681769
14355
13.7720827948949
14530
13.7766620216129
14536
13.7812412483309
14430
13.7858204750489
14406
13.7903997017669
14338
13.7936541020307
14392
13.7963132904092
14410
13.7989724787878
14297
13.8016316671664
14291
13.804290855545
14550
13.8069500439236
14320
13.8096092323022
14440
13.8122684206807
14563
13.8149276090593
14379
13.8175867974379
14427
13.8202459858165
14398
13.8229051741951
14608
13.8255643625737
14968
13.8282235509522
15365
13.8308827393308
16024
13.8335419277094
16704
13.836201116088
17476
13.8388603044666
18096
13.8415194928452
18575
13.8441786812237
18708
13.8468378696023
18721
13.8494970579809
18059
13.8521562463595
17395
13.8548154347381
16461
13.8574746231167
15251
13.8601338114952
14420
13.8627929998738
13568
13.8654521882524
12790
13.868111376631
12512
13.8707705650096
11819
13.8734297533882
11089
13.8760889417667
10301
13.8787481301453
9701
13.8814073185239
9296
13.8840665069025
8703
13.8867256952811
8344
13.8893848836597
7842
13.8920440720382
7891
13.8947032604168
8619
13.8973624487954
10787
13.900021637174
17457
13.9026808255526
37254
13.9053400139312
68854
13.9079992023097
81848
13.9106583906883
57242
13.9133175790669
24270
13.9159767674455
9879
13.9186359558241
6953
13.9212951442027
6402
13.9239543325812
6231
13.9266135209598
6022
13.9292727093384
5852
13.931931897717
5782
13.9345910860956
5614
13.9372502744742
5755
13.9399094628527
5716
13.9425686512313
5633
13.9452278396099
5670
13.9478870279885
5692
13.9505462163671
5760
13.9530140215761
5689
13.9553958430422
5632
13.9577776645084
5740
13.9601594859745
5649
13.9625413074407
5682
13.9649231289068
5650
13.967304950373
5785
13.9696867718391
5682
13.9720685933052
5610
13.9744504147714
5705
13.9768322362375
5644
13.9792140577037
5653
13.9815958791698
5738
13.983977700636
5751
13.9863595221021
5749
13.9887413435683
5678
13.9911231650344
5727
13.9935049865005
5748
13.9958868079667
5711
13.9982686294328
5695
14.000650450899
5615
14.0030322723651
5753
14.0054140938313
5713
14.0077959152974
5702
14.0101777367636
5707
14.0125595582297
5833
14.0149413796959
5685
14.017323201162
5769
14.0197050226281
5735
14.0220868440943
5735
14.0244686655604
5675
14.0268504870266
5761
14.0292323084927
5728
14.0316141299589
5652
14.033995951425
5745
14.0363777728912
5727
14.0387595943573
5800
14.0411414158235
5788
14.0435232372896
5736
14.0459050587557
5692
14.0475732884249
5721
14.048920918881
5602
14.050268549337
5714
14.051616179793
5707
14.0529638102491
5805
14.0543114407051
5695
14.0556590711612
5678
14.0570067016172
5794
14.0583543320732
5678
14.0597019625293
5674
14.0610495929853
5709
14.0623972234414
5787
14.0637448538974
5798
14.0650924843534
5763
14.0664401148095
5764
14.0677877452655
5697
14.0691353757215
5847
14.0704830061776
5823
14.0718306366336
5862
14.0731782670897
5865
14.0745258975457
5879
14.0758735280017
5837
14.0772211584578
5734
14.0785687889138
5764
14.0799164193699
5855
14.0812640498259
5811
14.0826116802819
5841
14.083959310738
5776
14.085306941194
5845
14.0866545716501
5857
14.0880022021061
5823
14.0893498325621
5831
14.0906974630182
5959
14.0920450934742
6037
14.0933927239303
5987
14.0947403543863
5971
14.0960879848423
5943
14.0974356152984
5861
14.0987832457544
5844
14.1001308762105
5837
14.1014785066665
5845
14.1028261371225
5913
14.1041737675786
5959
14.1055213980346
5996
14.1068690284907
6016
14.1082166589467
5946
14.1095642894027
5992
14.1109119198588
6026
14.1122595503148
5909
14.1136071807708
5976
14.1163952702927
6060
14.1198305225833
5974
14.1232657748739
5891
14.1267010271645
5852
14.130136279455
6011
14.1335715317456
5954
14.1370067840362
6025
14.1404420363268
5942
14.1438772886173
5996
14.1473125409079
6015
14.1507477931985
5994
14.1541830454891
5995
14.1576182977797
6011
14.1610535500702
5956
14.1644888023608
6021
14.1679240546514
6099
14.171359306942
6117
14.1747945592326
6223
14.1782298115231
6166
14.1816650638137
6042
14.1851003161043
6104
14.1885355683949
6135
14.1919708206854
6067
14.195406072976
6108
14.1988413252666
6300
14.2022765775572
6273
14.2057118298478
6093
14.2091470821383
6128
14.2125823344289
6146
14.2160175867195
6213
14.2194528390101
6057
14.2228880913007
6161
14.2263233435912
6106
14.2297585958818
6071
14.2331938481724
6183
14.236629100463
6153
14.2400643527535
6185
14.2434996050441
6153
14.2469348573347
6174
14.2503701096253
6317
14.252524002417
6383
14.2541022119557
6126
14.2556804214944
6217
14.2572586310331
6184
14.2588368405717
6267
14.2604150501104
6279
14.2619932596491
6293
14.2635714691878
6283
14.2651496787264
6345
14.2667278882651
6366
14.2683060978038
6214
14.2698843073424
6298
14.2714625168811
6341
14.2730407264198
6305
14.2746189359585
6202
14.2761971454971
6349
14.2777753550358
6380
14.2793535645745
6331
14.2809317741132
6323
14.2825099836518
6371
14.2840881931905
6423
14.2856664027292
6313
14.2872446122679
6407
14.2888228218065
6360
14.2904010313452
6239
14.2919792408839
6373
14.2935574504226
6405
14.2951356599612
6444
14.2967138694999
6402
14.2982920790386
6418
14.2998702885772
6499
14.3014484981159
6618
14.3030267076546
6758
14.3046049171933
6896
14.3061831267319
6845
14.3077613362706
6642
14.3093395458093
6949
14.310917755348
6764
14.3124959648866
6660
14.3140741744253
6354
14.315652383964
6535
14.3172305935027
6422
14.3188088030413
6386
14.32038701258
6566
14.3219652221187
6643
14.3235434316573
6473
14.325121641196
6621
14.3266998507347
6583
14.3282780602734
6697
14.329856269812
6701
14.3314344793507
6588
14.3330126888894
6662
14.3345908984281
6718
14.3361691079667
6573
14.3377473175054
6793
14.3393255270441
6800
14.3409037365827
6907
14.3424819461214
6846
14.3440601556601
6733
14.3456383651988
6574
14.3472165747374
6686
14.3487947842761
6763
14.3503729938148
6780
14.3519512033535
6754
14.3535294128921
6735
14.3551076224308
6650
14.3566858319695
6865
14.3582640415082
6860
14.3598422510468
6768
14.3614204605855
6722
14.3629986701242
6635
14.3645768796629
6700
14.3661550892015
6856
14.3677332987402
6877
14.3693115082789
6981
14.3708897178175
7203
14.3724679273562
7400
14.3740461368949
7900
14.3756243464336
8308
14.3772025559722
8165
14.3787807655109
7515
14.3803589750496
7136
14.3819371845883
6865
14.3835153941269
6715
14.3850936036656
6541
14.3866718132043
6500
14.3882500227429
6392
14.3898282322816
6187
14.3914064418203
6148
14.392984651359
6177
14.3969653994619
6095
14.4020255489489
6209
14.4070856984358
6192
14.4121458479227
6164
14.4172059974097
6608
14.4222661468966
7370
14.4273262963835
7590
14.4323864458704
8005
14.4374465953574
11375
14.4425067448443
15998
14.4475668943312
13196
14.4526270438181
8094
14.4576871933051
6270
14.462747342792
5989
14.4678074922789
5860
14.4728676417659
5861
14.4779277912528
5889
14.4829879407397
5862
14.4880480902266
5810
14.4931082397136
5788
14.4981683892005
5898
14.5032285386874
5870
14.5082886881744
5960
14.5133488376613
5940
14.5184089871482
5952
14.5234691366351
5828
14.5285292861221
5803
14.533589435609
5797
14.5386495850959
5632
14.5437097345829
5919
14.5487698840698
5864
14.5538300335567
5850
14.5588901830436
5928
14.5639503325306
5874
14.5690104820175
5847
14.5740706315044
5804
14.5791307809914
5885
14.5841909304783
5945
14.5892510799652
5928
14.5943112294521
5906
14.5993713789391
5884
14.604431528426
5943
14.6094916779129
5904
14.6145518273998
5872
14.6196119768868
6019
14.6246721263737
6048
14.6297322758606
5998
14.6347924253476
6035
14.6398525748345
6008
14.6449127243214
6025
14.6483158608682
6008
14.6509745423259
6082
14.6536332237837
6199
14.6562919052414
6043
14.6589505866992
6066
14.6616092681569
5957
14.6642679496147
5854
14.6669266310724
6047
14.6695853125302
5983
14.6722439939879
5962
14.6749026754456
5970
14.6775613569034
6111
14.6802200383611
6147
14.6828787198189
6177
14.6855374012766
6022
14.6881960827344
6074
14.6908547641921
5995
14.6935134456498
6144
14.6961721271076
6073
14.6988308085653
6114
14.7014894900231
6075
14.7041481714808
6077
14.7068068529386
6114
14.7094655343963
6131
14.712124215854
6086
14.7147828973118
6043
14.7174415787695
6141
14.7201002602273
6153
14.722758941685
6158
14.7254176231428
6147
14.7280763046005
6222
14.7307349860583
6152
14.733393667516
6178
14.7360523489737
6171
14.7387110304315
6138
14.7413697118892
6131
14.744028393347
6140
14.7466870748047
6232
14.7493457562625
6263
14.7520044377202
6209
14.7546631191779
6215
14.7573218006357
6220
14.7599804820934
6213
14.7626391635512
6163
14.7652978450089
6261
14.7679565264667
6350
14.7706152079244
6415
14.7732738893821
6371
14.7759325708399
6345
14.7785912522976
6367
14.7812499337554
6270
14.7839086152131
6305
14.7865672966709
6221
14.7892259781286
6243
14.7918846595864
6303
14.7945433410441
6354
14.7972020225018
6271
14.7998607039596
6376
14.8025193854173
6481
14.8051780668751
6417
14.8049420561733
6428
14.8034055316027
6381
14.8018690070321
6440
14.8003324824615
6470
14.798795957891
6548
14.7972594333204
6490
14.7957229087498
6608
14.7941863841792
6439
14.7926498596087
6330
14.7911133350381
6375
14.7895768104675
6406
14.7880402858969
6491
14.7865037613263
6523
14.7849672367558
6555
14.7834307121852
6474
14.7818941876146
6575
14.780357663044
6658
14.7788211384735
6628
14.7772846139029
6535
14.7757480893323
6712
14.7742115647617
6784
14.7726750401911
6791
14.7711385156206
6540
14.76960199105
6318
14.7680654664794
6361
14.7665289419088
6216
14.7649924173383
6338
14.7634558927677
6300
14.7619193681971
6280
14.7603828436265
6444
14.7588463190559
6652
14.7573097944854
6802
14.7557732699148
6817
14.7542367453442
6852
14.7527002207736
6972
14.7511636962031
7119
14.7496271716325
7069
14.7480906470619
6857
14.7465541224913
6422
14.7450175979208
6355
14.7434810733502
6319
14.7419445487796
6291
14.740408024209
6406
14.7388714996384
6488
14.7373349750679
6434
14.7357984504973
6485
14.7342619259267
6338
14.7327254013561
6451
14.7311888767856
6359
14.729652352215
6407
14.7281158276444
6638
14.7265793030738
7017
14.7250427785032
6999
14.7235062539327
6159
14.7219697293621
5051
14.7204332047915
4477
14.7240294164187
4305
14.7299316399609
4123
14.7358338635031
4091
14.7417360870452
4120
14.7476383105874
4146
14.7535405341296
4436
14.7594427576717
5100
14.7653449812139
6977
14.7712472047561
11716
14.7771494282983
16541
14.7830516518404
15480
14.7889538753826
12324
14.7948560989248
8662
14.8007583224669
5216
14.8066605460091
3806
14.8125627695513
3365
14.8184649930934
3235
14.8243672166356
3212
14.8302694401778
3067
14.83617166372
2992
14.8420738872621
3073
14.8479761108043
3079
14.8538783343465
3110
14.8597805578886
3143
14.8656827814308
3310
14.871585004973
3543
14.8774872285151
3555
14.8833894520573
3324
14.8892916755995
2937
14.8951938991416
2880
14.9010961226838
2981
14.906998346226
3016
14.9129005697681
2855
14.9188027933103
2811
14.9247050168525
2830
14.9306072403947
2813
14.9365094639368
2780
14.942411687479
2786
14.9483139110212
2875
14.9542161345633
3212
14.9601183581055
3448
14.9660205816477
3479
14.9719228051898
2745
14.977825028732
1896
14.9837272522742
1476
14.9896294758164
1272
14.9955316993585
1144
15.0014339229007
1076
15.0073361464429
1075
15.013238369985
1098
15.0191405935272
1277
15.0250428170694
1563
15.0309450406115
2819
15.0368472641537
7319
15.0427494876959
11129
15.048651711238
8574
15.0545539347802
6189
15.0604561583224
4304
15.0663583818645
1515
15.0722606054067
675
15.0781628289489
642
15.0840650524911
625
15.0899672760332
598
15.0958694995754
599
15.1017717231176
609
15.1076739466597
609
15.1135761702019
618
15.1194783937441
610
15.1253806172862
621
15.1312828408284
649
15.1371850643706
644
15.1430872879128
640
15.1489895114549
685
15.1548917349971
709
15.1607939585393
703
15.1666961820814
691
15.1725984056236
800
15.1785006291658
856
15.1844028527079
926
15.1903050762501
897
15.1962072997923
828
15.2021095233344
791
15.2080117468766
771
15.2139139704188
766
15.219816193961
760
15.2257184175031
702
15.2316206410453
684
15.2375228645875
640
15.2434250881296
648
15.2493273116718
643
15.255229535214
623
15.2611317587561
628
15.2670339822983
643
15.2729362058405
628
15.2788384293826
624
15.2847406529248
634
15.290642876467
639
15.2965451000092
700
15.3024473235513
752
15.3083495470935
816
15.3142517706357
953
15.3201539941778
1159
15.32605621772
1495
15.3319584412622
1918
15.3378606648043
2390
15.3437628883465
2494
15.3496651118887
1936
15.3555673354308
1162
15.361469558973
724
15.3673717825152
524
15.3732740060574
423
15.3791762295995
370
15.3850784531417
327
15.3909806766839
337
15.396882900226
332
15.4027851237682
340
15.4086873473104
408
15.4145895708525
573
15.4204917943947
739
15.4263940179369
710
15.432296241479
752
15.4381984650212
703
15.4441006885634
732
15.4500029121056
678
15.4559051356477
444
15.4618073591899
228
15.4677095827321
142
15.4736118062742
152
15.4795140298164
123
15.4854162533586
88
15.4913184769007
27
15.4972207004429
3
15.5031229239851
1
15.5090251475272
4
15.5149273710694
1
15.5208295946116
end of experiment
